# time[s]  x   y   z   vx   vy   vz [m]  2022/12/05
0.000000 2527173.870710 3546396.013237 -5222854.655775 -6879.309211 3116.951614 -1220.550918
240.000000 804412.718908 4156759.765890 -5322205.396871 -7388.365144 1941.981348 392.923032
480.000000 -976538.151338 4466433.834096 -5035448.927230 -7362.859655 626.662627 1977.702855
720.000000 -2686815.203011 4452938.819431 -4383307.904310 -6804.382235 -734.763550 3419.793985
960.000000 -4202497.510154 4116981.709056 -3412847.473042 -5752.264859 -2044.415125 4614.911813
1200.000000 -5413450.203889 3482527.515139 -2194247.027578 -4281.387225 -3207.484050 5475.836685
1440.000000 -6231347.159149 2595240.855644 -815900.815723 -2497.546706 -4139.043818 5938.928457
1680.000000 -6596277.792292 1519318.275928 621904.887809 -530.251969 -4770.564909 5969.364548
1920.000000 -6481321.018798 332868.966848 2014327.814077 1476.869320 -5055.343650 5564.198881
2160.000000 -5894642.391160 -877805.503306 3259722.884680 3376.926341 -4972.203702 4752.784836
2400.000000 -4878920.913947 -2024586.734553 4267181.531312 5031.037868 -4527.191767 3594.556567
2640.000000 -3508132.400263 -3024033.273701 4963216.321875 6318.814167 -3752.840175 2174.205525
2880.000000 -1882056.739984 -3803435.928822 5297064.973395 7146.752202 -2705.410951 595.208420
3120.000000 -119017.738104 -4306049.270935 5244328.402612 7454.640455 -1460.835363 -1027.556523
3360.000000 1652670.355038 -4495189.904331 4808731.185138 7219.822379 -109.325459 -2576.016514
3600.000000 3303961.349909 -4356909.875483 4021880.206906 6458.802206 1250.996632 -3937.236633
3840.000000 4714423.758682 -3901079.718753 2941062.520188 5226.423487 2520.942178 -5011.418797
4080.000000 5781089.478188 -3160782.452637 1645171.878651 3612.465805 3607.459473 -5719.429275
4320.000000 6426136.040566 -2189974.286709 228956.159732 1735.330531 4430.762646 -6009.109623
4560.000000 6602726.114951 -1059518.199037 -1204014.942394 -266.902529 4930.628600 -5859.512382
4800.000000 6298460.701488 148111.176626 -2549086.488178 -2247.229107 5071.053847 -5282.477543
5040.000000 5536154.712639 1344988.930862 -3708297.678675 -4061.081537 4842.786966 -4321.443702
5280.000000 4371919.411540 2444241.941417 -4597561.947850 -5577.244453 4263.628847 -3047.686594
5520.000000 2890790.246516 3366352.631330 -5152672.663262 -6687.204497 3376.523824 -1554.427240
5760.000000 1200384.634847 4044787.303320 -5333735.981824 -7312.192108 2245.965950 50.212436
6000.000000 -576862.627318 4430620.232188 -5127845.870914 -7408.031736 953.282968 1650.763792
6240.000000 -2312365.789886 4495918.001728 -4549911.951694 -6967.795546 -408.922222 3132.184574
6480.000000 -3880434.136323 4235723.866392 -3641634.263376 -6022.366699 -1742.843190 4387.499374
6720.000000 -5167209.980176 3668523.707311 -2468662.672557 -4638.910462 -2952.071341 5325.276346
6960.000000 -6078930.394436 2835077.218750 -1116023.586115 -2916.715654 -3948.516425 5876.446895
7200.000000 -6548881.584620 1795619.010025 317931.988544 -980.540156 -4658.980731 5999.738744
7440.000000 -6542481.040139 625564.252942 1728681.857650 1028.339357 -5030.971364 5685.331548
7680.000000 -6059960.307481 -590012.193864 3013264.800652 2962.982261 -5036.939289 4955.883089
7920.000000 -5136370.781028 -1762649.162589 4077906.439071 4681.966702 -4676.302921 3864.706767
8160.000000 -3838972.227352 -2807007.798184 4844925.612474 6059.954023 -3975.410205 2491.660558
8400.000000 -2262223.092355 -3647111.468795 5258392.925203 6996.904374 -2985.316100 936.915055
8640.000000 -520846.769395 -4221818.129667 5288120.314818 7424.809085 -1777.773277 -686.496161
8880.000000 1258439.881840 -4489205.742836 4931815.580985 7312.243424 -440.243518 -2260.496860
9120.000000 2946055.167889 -4429634.869255 4215298.481649 6666.846118 930.176699 -3670.302086
9360.000000 4418947.617059 -4047238.486301 3190704.961880 5535.014696 2233.664474 -4812.687107
9600.000000 5569598.744970 -3369720.917828 1932787.109562 3999.011826 3374.803277 -5603.556821
9840.000000 6314019.330231 -2446431.199724 533498.253994 2171.395515 4269.788324 -5984.579320
10080.000000 6598058.196845 -1344758.804165 -904812.537934 186.596314 4853.036669 -5927.964107
10320.000000 6401425.319140 -145108.412150 -2277046.907947 -1809.517805 5082.306390 -5438.636259
10560.000000 5739077.085531 1065118.368507 -3483190.293772 -3671.001179 4941.786575 -4553.613114
10800.000000 4659884.931445 2198006.842143 -4435666.269931 -5262.899923 4442.882171 -3338.706184
11040.000000 3242793.284451 3171535.326591 -5065629.795324 -6470.971076 3622.834372 -1883.088857
11280.000000 1590879.207852 3915421.001703 -5327765.884424 -7209.355689 2541.501267 -292.401363
11520.000000 -176142.264087 4376022.055973 -5203338.871117 -7425.863483 1276.819379 1318.799987
11760.000000 -1930414.252786 4520044.685297 -4701407.338520 -7105.088572 -80.565450 2834.742532
12000.000000 -3544933.772756 4336881.654736 -3858187.503495 -6269.450577 -1433.302591 4146.136042
12240.000000 -4902543.049597 3839452.353782 -2734592.301012 -4978.121491 -2683.797726 5157.644871
12480.000000 -5904392.082232 3063441.730999 -1412022.657952 -3323.614059 -3741.081268 5794.923716
12720.000000 -6477250.617830 2064877.748897 13411.174095 -1425.592578 -4527.650061 6010.500836
12960.000000 -6579035.865337 916156.523329 1437855.623287 577.669999 -4985.455460 5787.721596
13200.000000 -6202069.035502 -299221.139431 2757362.663888 2539.614531 -5080.587324 5142.431816
13440.000000 -5373700.092671 -1492815.317239 3875610.210417 4316.779525 -4805.970658 4121.808336
13680.000000 -4154242.390179 -2577766.755191 4711000.997170 5779.571325 -4181.654052 2800.502632
13920.000000 -2632489.829380 -3475140.128694 5202607.443322 6821.623136 -3253.126181 1274.978426
14160.000000 -919185.700298 -4119641.662901 5314565.193465 7367.368055 -2087.788891 -343.711293
14400.000000 861019.858979 -4464300.393525 5038613.737099 7377.006484 -769.989953 -1937.944006
14640.000000 2578520.158231 -4483859.447717 4394705.052624 6849.236562 604.718631 -3391.589687
14880.000000 4108113.171360 -4176683.722840 3429654.798501 5821.836796 1936.237779 -4598.266996
15120.000000 5338162.813716 -3564979.017072 2213834.337276 4369.359024 3127.205344 -5469.253057
15360.000000 6178866.556961 -2693262.325524 836087.624482 2598.058608 4090.211887 -5940.295896
15600.000000 6568988.815979 -1625141.481685 -602811.418424 638.169218 4754.597773 -5976.852181
15840.000000 6480440.101436 -438588.487901 -1997681.774187 -1366.175751 5072.046336 -5576.887117
16080.000000 5920269.864542 779901.520773 -3246788.568939 -3268.200130 5020.202116 -4770.833084
16320.000000 4929934.893229 1941749.537565 -4259354.560430 -4929.741365 4604.012914 -3618.822299
16560.000000 3581987.022359 2962774.443376 -4962115.287400 -6231.310054 3854.785927 -2205.605239
16800.000000 1974576.967585 3769214.777832 -5304458.194297 -7080.174142 2827.393257 -633.970064
17040.000000 224276.343172 4302902.963323 -5261867.611203 -7416.269178 1596.063189 982.709401
17280.000000 -1542241.569560 4525295.833221 -4837529.776671 -7215.801145 249.134449 2528.258894
17520.000000 -3197122.392390 4420162.784762 -4062075.273960 -6492.703627 -1116.838510 3891.405489
17760.000000 -4620355.720233 3994797.021341 -2991494.205933 -5298.038157 -2403.483375 4973.287243
18000.000000 -5708389.545427 3279642.992162 -1703291.647934 -3717.135187 -3517.381143 5694.555592
18240.000000 -6381756.171823 2326275.465341 -291029.773943 -1864.159930 -4376.970127 6001.612270
18480.000000 -6591062.933801 1203765.939747 1142438.777409 126.028571 -4918.927813 5871.118450
18720.000000 -6320773.251517 -6328.096945 2492532.725275 2107.962542 -5103.157150 5312.060345
18960.000000 -5590433.851228 -1215958.134790 3660690.067036 3936.629718 -4915.960016 4365.224001
19200.000000 -4453217.630294 -2337086.558831 4561662.866275 5478.569862 -4371.022712 3099.947415
19440.000000 -2991939.305640 -3288142.362703 5129743.012374 6621.642967 -3508.099238 1608.623675
19680.000000 -1312955.997071 -3999932.620451 5323494.148278 7282.877524 -2389.880801 -0.142700
19920.000000 461570.175713 -4420618.473657 5128716.349806 7414.201111 -1097.371286 -1609.370321
20160.000000 2202482.758031 -4519439.256252 4559463.843522 7005.637397 275.819786 -3101.959092
20400.000000 3782925.259282 -4288983.911905 3657090.250262 6086.208056 1629.857917 -4368.842607
20640.000000 5087576.181856 -3745843.912063 2487355.527077 4722.443638 2865.787396 -5316.950138
20880.000000 6021179.204100 -2929508.877843 1135700.667467 3013.966260 3892.942127 -5876.369331
21120.000000 6515671.272212 -1899523.927470 -299020.787808 1086.293112 4635.918754 -6005.944773
21360.000000 6535286.624945 -731083.949401 -1711904.403116 -918.750796 5040.519398 -5696.674170
21600.000000 6079150.026844 490597.259866 -2999839.542289 -2854.154838 5077.898231 -4972.281761
21840.000000 5181151.710927 1676644.919088 -4069147.429660 -4579.043281 4746.451568 -3886.984972
22080.000000 3907193.081575 2741058.938236 -4842385.107688 -5969.099247 4071.425846 -2520.859480
22320.000000 2350138.067546 3606899.644235 -5263808.974099 -6925.127722 3102.471392 -973.452978
22560.000000 622981.867855 4211696.904106 -5303185.679075 -7379.358592 1909.724129 643.474461
22800.000000 -1149236.324040 4511789.248448 -4957805.506339 -7299.632014 578.849812 2213.632646
23040.000000 -2838266.065652 4485368.773719 -4252625.566560 -6691.407139 -794.745484 3624.043158
23280.000000 -4321693.056307 4134062.875343 -3238551.542383 -5597.559498 -2112.274183 4772.653269
23520.000000 -5491676.563161 3482942.870328 -1988945.083717 -4095.992013 -3278.289403 5575.479691
23760.000000 -6262831.062996 2578895.305424 -594498.008909 -2294.846415 -4207.559487 5973.006726
24000.000000 -6578642.414778 1487365.243606 843279.412938 -325.067897 -4831.658615 5935.198220
24240.000000 -6415800.811336 287629.571987 2219513.791217 1669.391200 -5104.473390 5464.213083
24480.000000 -5786004.972412 -933035.658733 3433741.900100 3542.622330 -5005.819934 4594.329128
24720.000000 -4735089.954883 -2085793.936403 4397342.293339 5157.835334 -4542.870742 3389.229263
24960.000000 -3339593.558516 -3086766.547729 5040032.085921 6397.475243 -3749.411293 1937.001473
25200.000000 -1701096.457186 -3863129.819625 5314946.244588 7171.556078 -2683.133759 343.456035
25440.000000 61181.404895 -4358363.979077 5201984.173321 7423.833820 -1421.339782 -1275.530705
25680.000000 1818989.476720 -4536316.538651 4709250.265044 7135.650536 -55.427401 -2802.175652
25920.000000 3444285.453132 -4383837.928428 3872516.787697 6327.349242 1315.431438 -4125.046010
26160.000000 4818523.738613 -3911826.065906 2752726.350335 5057.259969 2591.214400 -5147.090695
26400.000000 5841382.491066 -3154549.891498 1431634.266835 3417.980438 3678.405320 -5793.006852
26640.000000 6438252.383159 -2167212.761924 5835.527510 1529.804546 4497.176667 -6015.212541
26880.000000 6565837.132434 -1021888.617670 -1420405.232713 -468.349231 4987.654872 -5797.751125
27120.000000 6215342.214175 197866.660883 -2742951.175639 -2429.801986 5114.581571 -5157.531396
27360.000000 5412960.107691 1403265.420286 -3865534.906000 -4211.538204 4869.765316 -4142.644481
27600.000000 4217683.522916 2506842.041844 -4706781.100504 -5684.864501 4272.188442 -2828.167515
27840.000000 2716744.268061 3428775.697584 -5205986.512767 -6744.427889 3366.038883 -1310.120269
28080.000000 1019142.228106 4102531.565830 -5327297.637311 -7315.057542 2217.083685 301.714599
28320.000000 -752190.853249 4479484.665375 -5062102.149810 -7356.333144 907.904409 1891.400814
28560.000000 -2469075.387185 4532302.473211 -4429578.548296 -6865.117785 -467.651020 3344.575031
28800.000000 -4007129.260798 4256909.699972 -3475383.080903 -5875.988946 -1810.725637 4556.209984
29040.000000 -5254631.073270 3672883.238437 -2268508.749506 -4459.267443 -3024.215231 5437.985055
29280.000000 -6120623.132566 2822204.934455 -896475.835574 -2716.684555 -4019.631362 5924.768553
29520.000000 -6541691.696976 1766384.825096 540899.807853 -774.653933 -4723.765321 5979.922575
29760.000000 -6486824.304907 582061.762368 1938799.639147 1224.982842 -5084.569316 5598.669486
30000.000000 -5959817.361122 -644619.271205 3195175.855238 3135.879992 -5075.338625 4808.656283
30240.000000 -4999004.909402 -1824374.398700 4218316.827395 4818.382457 -4696.705331 3667.726447
30480.000000 -3674374.045609 -2871353.191861 4933584.953911 6149.953175 -3976.360634 2259.331109
30720.000000 -2082364.654566 -3709387.147734 5288823.391226 7033.914621 -2966.709192 686.148000
30960.000000 -338824.215956 -4277477.945721 5258088.859987 7406.070831 -1740.959599 -937.385365
31200.000000 1429365.517851 -4534189.449770 4843507.750143 7239.125846 -387.924944 -2493.181899
31440.000000 3093431.757088 -4460660.263159 4075153.401992 6544.657931 994.200674 -3867.795327
31680.000000 4532032.400269 -4062042.189271 3008955.927342 5372.649629 2304.688365 -4960.487357
31920.000000 5640159.807994 -3367237.716406 1722726.404994 3808.413672 3447.572884 -5690.800239
32160.000000 6336959.135190 -2426870.594508 310492.443986 1966.623122 4338.959839 -6004.907583
32400.000000 6571791.900623 -1309578.885280 -1124462.960221 -17.244831 4913.577128 -5879.976300
32640.000000 6327995.502477 -96895.359035 -2477317.818220 -1997.425574 5129.885823 -5326.017726
32880.000000 5623982.107452 1122858.121594 -3649525.103631 -3829.291446 4973.097494 -4384.826842
33120.000000 4511630.774890 2261114.853041 -4556037.355471 -5380.266564 4455.820051 -3126.235615
33360.000000 3072228.109454 3235495.414710 -5131379.731011 -6539.222998 3616.539633 -1642.394066
33600.000000 1410394.170714 3975655.749349 -5334186.870677 -7223.818234 2516.355616 -40.805666
33840.000000 -353483.447181 4428190.844927 -5149983.117622 -7385.591820 1234.454222 1563.254389
34080.000000 -2091775.106067 4560340.172743 -4592116.357473 -7012.893175 -137.296508 3054.483185
34320.000000 -3678592.337091 4362315.223090 -3700840.331178 -6131.790941 -1500.403190 4325.220324
34560.000000 -4998738.503111 3848099.045078 -2540570.766306 -4804.825631 -2756.418721 5282.967172
34800.000000 -5956051.049302 3054592.040486 -1195399.783456 -3127.141779 -3813.958370 5857.249132
35040.000000 -6480506.688008 2039097.494763 236880.290913 -1220.130025 -4595.426748 6005.095452
35280.000000 -6533536.547015 875266.676617 1651868.570646 777.124928 -5043.076929 5714.796619
35520.000000 -6111031.407537 -352272.644501 2946275.134398 2718.439516 -5123.759856 5007.222926
35760.000000 -5243679.994712 -1554172.675604 4025595.364986 4461.855707 -4831.458837 3934.145420
36000.000000 -3994658.680952 -2642950.540237 4811071.084655 5880.241287 -4187.546713 2574.104775
36240.000000 -2454927.159731 -3539384.035662 5245423.264093 6870.539809 -3238.966334 1026.368308
36480.000000 -736544.371197 -4178236.930243 5296955.988795 7360.902233 -2054.547501 -596.455803
36720.000000 1035441.869792 -4512939.631402 4961811.294187 7315.490758 -720.080817 -2176.352025
36960.000000 2732000.026317 -4518966.478604 4264278.485149 6737.107149 667.619065 -3598.164276
37200.000000 4229451.103398 -4195676.174581 3255109.661052 5667.269090 2007.517806 -4757.836964
37440.000000 5418506.830000 -3566460.711298 2007921.516053 4183.676171 3201.590856 -5570.057965
37680.000000 6212381.424065 -2677136.015959 613869.194368 2394.974480 4162.189395 -5974.929403
37920.000000 6553302.029781 -1592607.721005 -825085.875135 432.700403 4818.897029 -5942.854695
38160.000000 6416812.926394 -392041.076289 -2203787.236569 -1558.878622 5124.026799 -5476.910443
38400.000000 5813486.959022 837067.962152 -3421732.133893 -3434.041782 5056.201411 -4612.426992
38640.000000 4787914.077442 2005403.442943 -4390477.024503 -5056.789693 4621.578368 -3413.765067
38880.000000 3415155.711170 3028350.107181 -5039989.727407 -6310.625079 3852.775748 -1968.913188
39120.000000 1795086.059789 3832027.058513 -5323528.590114 -7106.334704 2805.972859 -382.736782
39360.000000 45128.007037 4358452.308368 -5220803.216376 -7387.573588 1556.645055 1230.495159
39600.000000 -1708088.532892 4569563.043802 -4739304.640462 -7134.289970 194.352137 2754.834812
39840.000000 -3337641.699701 4449895.437664 -3913775.959239 -6364.081056 -1183.196769 4080.394830
40080.000000 -4725302.990790 4007767.245603 -2803847.175115 -5131.411847 -2476.658117 5110.864575
40320.000000 -5770062.800030 3274840.946442 -1489917.733563 -3524.512154 -3592.009307 5770.547643
40560.000000 -6395589.571403 2303995.691548 -67458.686897 -1659.548491 -4447.577259 6010.352248
40800.000000 -6555973.978341 1165585.726030 1359905.489107 327.712866 -4980.319203 5811.854959
41040.000000 -6239253.248130 -57657.431833 2688014.904715 2291.952750 -5150.790050 5189.042778
41280.000000 -5468376.476668 -1276715.134705 3819902.328572 4089.449137 -4946.337247 4187.418106
41520.000000 -4299480.624032 -2402858.845833 4672964.494951 5589.061778 -4381.911834 2880.314734
41760.000000 -2817693.084827 -3354143.992209 5184986.302516 6681.738561 -3498.659894 1363.185699
42000.000000 -1130868.502698 -4061348.180316 5318621.857618 7288.188766 -2360.742609 -253.482331
42240.000000 638252.672675 -4472952.485022 5064052.239913 7364.276603 -1050.604046 -1852.158668
42480.000000 2360883.479101 -4558852.676965 4439693.457062 6903.996300 336.788670 -3316.438683
42720.000000 3911480.697629 -4312593.474958 3490942.389634 5940.239225 1700.499610 -4539.233295
42960.000000 5176909.727104 -3751938.192617 2286974.473121 4542.891527 2940.879055 -5430.700558
43200.000000 6064807.541793 -2917668.808541 915749.961972 2814.096938 3966.950725 -5925.125851
43440.000000 6510492.333918 -1870648.775929 -522449.441821 880.903807 4703.426056 -5986.208907
43680.000000 6481808.392484 -687310.602412 -1922495.175963 -1114.498281 5096.666489 -5610.069268
43920.000000 5981431.976977 546070.998456 -3182267.269280 -3025.938524 5118.734589 -4825.381564
44160.000000 5046467.745788 1739807.800853 -4210202.194609 -4714.484869 4769.176408 -3690.736536
44400.000000 3745456.192439 2807377.777839 -4931915.087420 -6058.628027 4074.516188 -2289.666700
44640.000000 2173153.865949 3671632.713866 -5295419.854504 -6962.558503 3085.743796 -724.084084
44880.000000 443591.692520 4270214.602984 -5274663.774445 -7362.234604 1874.321707 893.098327
45120.000000 -1318058.578610 4559880.756747 -4871244.775740 -7229.263163 527.148731 2445.664547
45360.000000 -2984298.524637 4519527.630227 -4114275.960075 -6572.719579 -859.211785 3821.807084
45600.000000 -4434309.935031 4151752.278135 -3058409.415093 -5438.903441 -2184.939058 4921.732932
45840.000000 -5562624.871881 3482811.848695 -1780075.279383 -3908.731482 -3353.849684 5664.849944
46080.000000 -6286866.976976 2560904.600335 -372100.133046 -2092.593847 -4280.423822 5995.995330
46320.000000 -6553945.170820 1452796.767485 1062991.561265 -122.611510 -4896.449437 5890.053783
46560.000000 -6344112.397143 238985.073167 2420510.015602 1857.256731 -5156.432317 5354.188544
46800.000000 -5672502.390382 -992220.353663 3601348.154511 3702.151586 -5041.129271 4427.419222
47040.000000 -4588011.719003 -2151211.447169 4519317.110498 5277.350994 -4558.965065 3177.614448
47280.000000 -3169629.756659 -3153660.105308 5107463.319763 6468.280427 -3745.135616 1696.106140
47520.000000 -1520600.021817 -3926632.040405 5322891.975887 7188.501238 -2658.750717 90.802148
47760.000000 239084.988663 -4413837.104954 5149832.471752 7385.633048 -1378.542906 -1521.529441
48000.000000 1981347.091762 -4579691.722840 4600775.164903 7045.006434 2.707350 -3023.545008
48240.000000 3579256.656844 -4411926.425943 3715612.122179 6190.786681 1384.634462 -4305.571183
48480.000000 4916251.660943 -3922570.364951 2558840.605142 4884.726471 2666.338093 -5273.490090
48720.000000 5894739.984256 -3147183.858460 1214940.402966 3222.184858 3753.864546 -5855.965203
48960.000000 6443390.499742 -2142310.215508 -217818.223969 1325.236481 4567.421024 -6010.145812
49200.000000 6522473.687786 -981304.150136 -1634680.588026 -666.579223 5047.594550 -5725.165966
49440.000000 6126766.092348 251152.787837 -2932238.890640 -2607.160266 5159.960884 -5022.948327
