# time[s]  x   y   z   vx   vy   vz [m]  2022/12/05
0.000000 10789117.301575 5535769.754738 1600261.633641 -1515.212308 1412.908491 5317.653863
60.000000 10693984.145754 5618361.654508 1918650.799346 -1655.661742 1339.987326 5294.628051
120.000000 10590462.426468 5696546.448184 2235533.586592 -1794.813040 1266.014732 5267.445239
180.000000 10478633.315130 5770262.788155 2550661.199060 -1932.556956 1191.048771 5236.126755
240.000000 10358584.505191 5839452.834143 2863786.217785 -2068.785350 1115.148283 5200.697179
300.000000 10230410.142916 5904062.298521 3174662.795775 -2203.391282 1038.372841 5161.184326
360.000000 10094210.753046 5964040.488799 3483046.851336 -2336.269089 960.782703 5117.619221
420.000000 9950093.159413 6019340.347237 3788696.259942 -2467.314478 882.438761 5070.036072
480.000000 9798170.400574 6069918.487572 4091371.044501 -2596.424599 803.402497 5018.472246
540.000000 9638561.640547 6115735.228816 4390833.563854 -2723.498132 723.735930 4962.968236
600.000000 9471392.074721 6156754.626105 4686848.699354 -2848.435364 643.501571 4903.567625
660.000000 9296792.831029 6192944.498586 4979184.039389 -2971.138270 562.762368 4840.317058
720.000000 9114900.866465 6224276.454315 5267610.061681 -3091.510585 481.581660 4773.266196
780.000000 8925858.859044 6250725.912151 5551900.313238 -3209.457884 400.023126 4702.467678
840.000000 8729815.095288 6272272.120639 5831831.587804 -3324.887655 318.150736 4627.977082
900.000000 8526923.353349 6288898.173863 6107184.100665 -3437.709368 236.028697 4549.852874
960.000000 8317342.781854 6300591.024267 6377741.660693 -3547.834546 153.721405 4468.156365
1020.000000 8101237.774597 6307341.492444 6643291.839474 -3655.176839 71.293393 4382.951660
1080.000000 7878777.841161 6309144.273871 6903626.137406 -3759.652082 -11.190718 4294.305605
1140.000000 7650137.473598 6305997.942616 7158540.146636 -3861.178367 -93.666270 4202.287734
1200.000000 7415496.009269 6297904.952000 7407833.710702 -3959.676102 -176.068620 4106.970218
1260.000000 7175037.489968 6284871.632228 7651311.080789 -4055.068074 -258.333192 4008.427798
1320.000000 6928950.517437 6266908.184991 7888781.068443 -4147.279507 -340.395520 3906.737733
1380.000000 6677428.105395 6244028.675056 8120057.194670 -4236.238120 -422.191308 3801.979735
1440.000000 6420667.528207 6216251.018849 8344957.835279 -4321.874181 -503.656473 3694.235909
1500.000000 6158870.166313 6183596.970053 8563306.362390 -4404.120561 -584.727198 3583.590682
1560.000000 5892241.348535 6146092.102227 8774931.281979 -4482.912784 -665.339978 3470.130743
1620.000000 5620990.191403 6103765.788472 8979666.367386 -4558.189077 -745.431674 3353.944971
1680.000000 5345329.435614 6056651.178171 9177350.788676 -4629.890414 -824.939558 3235.124366
1740.000000 5065475.279763 6004785.170812 9367829.237768 -4697.960564 -903.801362 3113.761978
1800.000000 4781647.211473 5948208.386924 9550952.049241 -4762.346131 -981.955327 2989.952832
1860.000000 4494067.836051 5886965.136162 9726575.316743 -4822.996594 -1059.340250 2863.793858
1920.000000 4202962.702810 5821103.382558 9894561.004910 -4879.864346 -1135.895528 2735.383814
1980.000000 3908560.129188 5750674.706974 10054777.056727 -4932.904728 -1211.561210 2604.823208
2040.000000 3611091.022795 5675734.266784 10207097.496259 -4982.076065 -1286.278038 2472.214221
2100.000000 3310788.701522 5596340.752831 10351402.526673 -5027.339694 -1359.987495 2337.660628
2160.000000 3007888.711857 5512556.343678 10487578.623507 -5068.659995 -1432.631849 2201.267719
2220.000000 2702628.645526 5424446.657206 10615518.623089 -5106.004418 -1504.154194 2063.142218
2280.000000 2395247.954612 5332080.699583 10735121.806087 -5139.343504 -1574.498500 1923.392198
2340.000000 2085987.765281 5235530.811655 10846293.976102 -5168.650912 -1643.609648 1782.127002
2400.000000 1775090.690243 5134872.612795 10948947.533267 -5193.903434 -1711.433480 1639.457158
2460.000000 1462800.640106 5030184.942255 11043001.542806 -5215.081017 -1777.916831 1495.494293
2520.000000 1149362.633734 4921549.798062 11128381.798492 -5232.166775 -1843.007580 1350.351051
2580.000000 835022.607768 4809052.273505 11205020.880979 -5245.147002 -1906.654680 1204.141004
2640.000000 520027.225433 4692780.491263 11272858.210955 -5254.011185 -1968.808202 1056.978565
2700.000000 204623.684774 4572825.535216 11331840.097085 -5258.752011 -2029.419376 908.978906
2760.000000 -110940.473537 4449281.379993 11381919.778709 -5259.365372 -2088.440621 760.257863
2820.000000 -426417.558701 4322244.818300 11423057.463269 -5255.850372 -2145.825586 610.931854
2880.000000 -741559.922442 4191815.386095 11455220.358424 -5248.209324 -2201.529186 461.117789
2940.000000 -1056120.151685 4058095.285641 11478382.698852 -5236.447754 -2255.507635 310.932976
3000.000000 -1369851.261112 3921189.306513 11492525.767688 -5220.574393 -2307.718480 160.495040
3060.000000 -1682506.885467 3781204.744597 11497637.912609 -5200.601178 -2358.120636 9.921827
3120.000000 -1993841.471474 3638251.319147 11493714.556525 -5176.543236 -2406.674415 -140.668684
3180.000000 -2303610.469215 3492441.087959 11480758.202882 -5148.418882 -2453.341557 -291.158468
3240.000000 -2611570.522852 3343888.360711 11458778.435560 -5116.249601 -2498.085264 -441.429550
3300.000000 -2917479.660532 3192709.610537 11427791.913360 -5080.060038 -2540.870225 -591.364091
3360.000000 -3221097.483363 3039023.383900 11387822.359077 -5039.877977 -2581.662643 -740.844478
3420.000000 -3522185.353295 2882950.208815 11338900.543164 -4995.734325 -2620.430266 -889.753417
3480.000000 -3820506.579796 2724612.501495 11281064.261980 -4947.663088 -2657.142412 -1037.974019
3540.000000 -4115826.605163 2564134.471481 11214358.310644 -4895.701348 -2691.769989 -1185.389896
3600.000000 -4407913.188348 2401642.025326 11138834.450490 -4839.889241 -2724.285524 -1331.885245
3660.000000 -4696536.587149 2237262.668893 11054551.371144 -4780.269921 -2754.663185 -1477.344940
3720.000000 -4981469.738642 2071125.408346 10961574.647240 -4716.889536 -2782.878797 -1621.654621
3780.000000 -5262488.437703 1903360.649891 10859976.689796 -4649.797193 -2808.909868 -1764.700783
3840.000000 -5539371.513501 1734100.098354 10749836.692261 -4579.044922 -2832.735606 -1906.370864
3900.000000 -5811901.003813 1563476.654649 10631240.571288 -4504.687640 -2854.336937 -2046.553335
3960.000000 -6079862.327033 1391624.312231 10504280.902229 -4426.783109 -2873.696519 -2185.137782
4020.000000 -6343044.451738 1218678.052583 10369056.849413 -4345.391899 -2890.798762 -2322.015000
4080.000000 -6601240.063683 1044773.739842 10225674.091240 -4260.577338 -2905.629836 -2457.077074
4140.000000 -6854245.730081 870048.014611 10074244.740113 -4172.405471 -2918.177690 -2590.217465
4200.000000 -7101862.061051 694638.187062 9914887.257289 -4080.945009 -2928.432058 -2721.331097
4260.000000 -7343893.868089 518682.129387 9747726.362668 -3986.267278 -2936.384473 -2850.314438
4320.000000 -7580150.319438 342318.167692 9572892.939584 -3888.446167 -2942.028273 -2977.065586
4380.000000 -7810445.092233 165684.973406 9390523.934664 -3787.558074 -2945.358610 -3101.484347
4440.000000 -8034596.521282 -11078.545703 9200762.252805 -3683.681847 -2946.372454 -3223.472318
4500.000000 -8252427.744369 -187833.354833 9003756.647340 -3576.898726 -2945.068601 -3342.932968
4560.000000 -8463766.843941 -364440.401680 8799661.605463 -3467.292282 -2941.447672 -3459.771711
4620.000000 -8668446.985070 -540760.726119 8588637.228989 -3354.948355 -2935.512119 -3573.895992
4680.000000 -8866306.549556 -716655.569941 8370849.110524 -3239.954985 -2927.266220 -3685.215352
4740.000000 -9057189.266061 -891986.486565 8146468.205134 -3122.402348 -2916.716083 -3793.641512
4800.000000 -9240944.336149 -1066615.450631 7915670.697594 -3002.382686 -2903.869641 -3899.088440
4860.000000 -9417426.556124 -1240404.967394 7678637.865319 -2879.990236 -2888.736646 -4001.472424
4920.000000 -9586496.434551 -1413218.181817 7435555.937060 -2755.321158 -2871.328669 -4100.712143
4980.000000 -9748020.305343 -1584918.987288 7186615.947479 -2628.473457 -2851.659085 -4196.728732
5040.000000 -9901870.436325 -1755372.133859 6932013.587710 -2499.546912 -2829.743072 -4289.445850
5100.000000 -10047925.133148 -1924443.335923 6671949.051996 -2368.642992 -2805.597596 -4378.789744
5160.000000 -10186068.838474 -2091999.379233 6406626.880546 -2235.864780 -2779.241399 -4464.689313
5220.000000 -10316192.226320 -2257908.227175 6136255.798710 -2101.316892 -2750.694991 -4547.076162
5280.000000 -10438192.291475 -2422039.126208 5861048.552602 -1965.105391 -2719.980629 -4625.884668
5340.000000 -10551972.433899 -2584262.710368 5581221.741305 -1827.337704 -2687.122305 -4701.052032
5400.000000 -10657442.538020 -2744451.104758 5296995.645778 -1688.122539 -2652.145727 -4772.518332
5460.000000 -10754519.046839 -2902478.027927 5008594.054609 -1547.569792 -2615.078297 -4840.226576
5520.000000 -10843125.030783 -3058218.893043 4716244.086765 -1405.790466 -2575.949096 -4904.122752
5580.000000 -10923190.251218 -3211550.907784 4420176.011450 -1262.896575 -2534.788858 -4964.155871
5640.000000 -10994651.218564 -3362353.172845 4120623.065263 -1119.001058 -2491.629944 -5020.278015
5700.000000 -11057451.244941 -3510506.778978 3817821.266771 -974.217684 -2446.506323 -5072.444376
5760.000000 -11111540.491306 -3655894.902478 3512009.228671 -828.660962 -2399.453540 -5120.613296
5820.000000 -11156876.008999 -3798402.899029 3203427.967697 -682.446048 -2350.508691 -5164.746305
5880.000000 -11193421.775690 -3937918.395827 2892320.712424 -535.688648 -2299.710393 -5204.808150
5940.000000 -11221148.725644 -4074331.381887 2578932.709149 -388.504926 -2247.098750 -5240.766830
6000.000000 -11240034.774310 -4207534.296466 2263511.026005 -241.011408 -2192.715326 -5272.593622
6060.000000 -11250064.837163 -4337422.115514 1946304.355475 -93.324886 -2136.603109 -5300.263108
6120.000000 -11251230.842815 -4463892.436069 1627562.815488 54.437676 -2078.806475 -5323.753194
6180.000000 -11243531.740337 -4586845.558533 1307537.749269 202.159242 -2019.371152 -5343.045134
6240.000000 -11226973.500819 -4706184.566742 986481.524106 349.722798 -1958.344187 -5358.123539
6300.000000 -11201569.113125 -4821815.405760 664647.329232 497.011449 -1895.773902 -5368.976402
6360.000000 -11167338.573875 -4933646.957336 342288.972979 643.908513 -1831.709857 -5375.595095
6420.000000 -11124308.871633 -5041591.112936 19660.679407 790.297622 -1766.202808 -5377.974387
6480.000000 -11072513.965335 -5145562.844311 -302983.115438 936.062815 -1699.304668 -5376.112444
6540.000000 -11011994.756958 -5245480.271509 -625387.967431 1081.088634 -1631.068461 -5370.010831
6600.000000 -10942799.058462 -5341264.728299 -947299.628277 1225.260221 -1561.548279 -5359.674509
6660.000000 -10864981.553044 -5432840.824921 -1268464.249227 1368.463408 -1490.799238 -5345.111833
6720.000000 -10778603.750718 -5520136.508136 -1588628.584429 1510.584817 -1418.877431 -5326.334543
6780.000000 -10683733.938285 -5603083.118500 -1907540.193737 1651.511949 -1345.839884 -5303.357753
6840.000000 -10580447.123732 -5681615.444826 -2224947.644780 1791.133278 -1271.744505 -5276.199939
6900.000000 -10468824.975113 -5755671.775786 -2540600.714135 1929.338343 -1196.650039 -5244.882920
6960.000000 -10348955.753975 -5825193.948609 -2854250.587409 2066.017837 -1120.616019 -5209.431840
7020.000000 -10220934.243395 -5890127.394834 -3165650.058072 2201.063697 -1043.702714 -5169.875146
7080.000000 -10084861.670690 -5950421.183092 -3474553.724841 2334.369193 -965.971082 -5126.244561
7140.000000 -9940845.624893 -6006028.058862 -3780718.187479 2465.829011 -887.482719 -5078.575058
7200.000000 -9788999.969063 -6056904.481197 -4083902.240804 2595.339345 -808.299806 -5026.904827
7260.000000 -9629444.747510 -6103010.656379 -4383867.066769 2722.797973 -728.485061 -4971.275243
7320.000000 -9462306.088053 -6144310.568477 -4680376.424433 2848.104345 -648.101683 -4911.730828
7380.000000 -9287716.099370 -6180772.006801 -4973196.837668 2971.159664 -567.213306 -4848.319212
7440.000000 -9105812.763569 -6212366.590222 -5262097.780447 3091.866959 -485.883939 -4781.091095
7500.000000 -8916739.824074 -6239069.788354 -5546851.859556 3210.131168 -404.177923 -4710.100196
7560.000000 -8720646.668928 -6260860.939583 -5827234.994572 3325.859212 -322.159867 -4635.403214
7620.000000 -8517688.209635 -6277723.265936 -6103026.594983 3438.960066 -239.894607 -4557.059772
7680.000000 -8308024.755655 -6289643.884790 -6374009.734276 3549.344834 -157.447144 -4475.132370
7740.000000 -8091821.884662 -6296613.817414 -6639971.320881 3656.926817 -74.882598 -4389.686330
7800.000000 -7869250.308700 -6298627.994354 -6900702.265820 3761.621579 7.733850 -4300.789741
7860.000000 -7640485.736349 -6295685.257655 -7155997.646937 3863.347015 90.337007 -4208.513397
7920.000000 -7405708.731039 -6287788.359944 -7405656.869583 3962.023411 172.861722 -4112.930744
7980.000000 -7165104.565642 -6274943.960365 -7649483.823627 4057.573509 255.242938 -4014.117809
8040.000000 -6918863.073455 -6257162.617400 -7887287.036685 4149.922563 337.415742 -3912.153145
8100.000000 -6667178.495745 -6234458.778573 -8118879.823450 4238.998395 419.315420 -3807.117757
8160.000000 -6410249.325949 -6206850.767076 -8344080.431002 4324.731453 500.877507 -3699.095041
8220.000000 -6148278.150707 -6174360.765318 -8562712.180024 4407.054857 582.037836 -3588.170710
8280.000000 -5881471.487835 -6137014.795433 -8774603.601785 4485.904454 662.732590 -3474.432724
8340.000000 -5610039.621400 -6094842.696776 -8979588.570824 4561.218863 742.898354 -3357.971219
8400.000000 -5334196.434028 -6047878.100425 -9177506.433239 4632.939521 822.472160 -3238.878432
8460.000000 -5054159.236595 -5996158.400721 -9368202.130477 4701.010722 901.391543 -3117.248625
8520.000000 -4770148.595432 -5939724.723895 -9551526.318567 4765.379662 979.594579 -2993.178009
8580.000000 -4482388.157201 -5878621.893790 -9727335.482703 4825.996473 1057.019946 -2866.764665
8640.000000 -4191104.471585 -5812898.394739 -9895492.047104 4882.814262 1133.606958 -2738.108465
8700.000000 -3896526.811928 -5742606.331621 -10055864.480094 4935.789138 1209.295623 -2607.310994
8760.000000 -3598886.993975 -5667801.387145 -10208327.394321 4984.880248 1284.026680 -2474.475465
8820.000000 -3298419.192860 -5588542.776404 -10352761.642069 5030.049804 1357.741651 -2339.706639
8880.000000 -2995359.758486 -5504893.198727 -10489054.405592 5071.263106 1430.382880 -2203.110739
8940.000000 -2689947.029434 -5416918.786904 -10617099.282438 5108.488567 1501.893581 -2064.795369
9000.000000 -2382421.145560 -5324689.053798 -10736796.365688 5141.697734 1572.217878 -1924.869431
9060.000000 -2073023.859405 -5228276.836412 -10848052.319091 5170.865307 1641.300849 -1783.443031
9120.000000 -1761998.346585 -5127758.237462 -10950780.447039 5195.969152 1709.088566 -1640.627401
9180.000000 -1449589.015286 -5023212.564486 -11044900.759347 5216.990318 1775.528136 -1496.534810
9240.000000 -1136041.315005 -4914722.266567 -11130340.030815 5233.913048 1840.567740 -1351.278473
9300.000000 -821601.544705 -4802372.868707 -11207031.855526 5246.724784 1904.156673 -1204.972470
9360.000000 -506516.660487 -4686252.903904 -11274916.695869 5255.416179 1966.245379 -1057.731651
9420.000000 -191034.082953 -4566453.842995 -11333941.926255 5259.981097 2026.785491 -909.671551
9480.000000 124598.495618 -4443070.022326 -11384061.871511 5260.416618 2085.729866 -760.908300
9540.000000 440133.304139 -4316198.569284 -11425237.839935 5256.723035 2143.032618 -611.558535
9600.000000 755322.685489 -4185939.325774 -11457438.150998 5248.903852 2198.649154 -461.739311
9660.000000 1069919.289050 -4052394.769682 -11480638.157688 5236.965780 2252.536207 -311.568008
9720.000000 1383676.262881 -3915669.934392 -11494820.263478 5220.918729 2304.651865 -161.162248
9780.000000 1696347.445387 -3775872.326416 -11499973.933934 5200.775799 2354.955606 -10.639797
9840.000000 2007687.556344 -3633111.841194 -11496095.702941 5176.553265 2403.408327 139.881516
9900.000000 2317452.387152 -3487500.677132 -11483189.173560 5148.270570 2449.972370 290.283895
9960.000000 2625398.990185 -3339153.247936 -11461265.013531 5115.950301 2494.611554 440.449662
10020.000000 2931285.867091 -3188186.093306 -11430340.945404 5079.618176 2537.291198 590.261349
10080.000000 3234873.155933 -3034717.788057 -11390441.731337 5039.303021 2577.978149 739.601785
10140.000000 3535922.817016 -2878868.849728 -11341599.152557 4995.036746 2616.640806 888.354187
10200.000000 3834198.817283 -2720761.644750 -11283851.983509 4946.854323 2653.249145 1036.402246
10260.000000 4129467.313156 -2560520.293230 -11217245.960708 4894.793759 2687.774738 1183.630215
10320.000000 4421496.831673 -2398270.572432 -11141833.746321 4838.896062 2720.190776 1329.923001
10380.000000 4710058.449814 -2234139.819011 -11057674.886497 4779.205216 2750.472091 1475.166246
10440.000000 4994925.971877 -2068256.830072 -10964835.764491 4715.768141 2778.595174 1619.246418
10500.000000 5275876.104779 -1900751.763130 -10863389.548582 4648.634665 2804.538189 1762.050896
10560.000000 5552688.631161 -1731756.035033 -10753416.134856 4577.857477 2828.280996 1903.468055
10620.000000 5825146.580169 -1561402.219920 -10635002.084864 4503.492098 2849.805161 2043.387352
10680.000000 6093036.395781 -1389823.946300 -10508240.558207 4425.596827 2869.093975 2181.699408
10740.000000 6356148.102575 -1217155.793297 -10373231.240093 4344.232710 2886.132461 2318.296095
10800.000000 6614275.468792 -1043533.186167 -10230080.263905 4259.463482 2900.907393 2453.070616
10860.000000 6867216.166596 -869092.291136 -10078900.128837 4171.355530 2913.407300 2585.917588
10920.000000 7114771.929394 -693969.909649 -9919809.612654 4079.977833 2923.622480 2716.733121
10980.000000 7356748.706110 -518303.372099 -9752933.679615 3985.401920 2931.545005 2845.414901
11040.000000 7592956.812286 -342230.431114 -9578403.383651 3887.701807 2937.168728 2971.862266
11100.000000 7823211.077902 -165889.154487 -9396355.766824 3786.953949 2940.489291 3095.976286
11160.000000 8047330.991796 10582.182189 -9206933.753165 3683.237177 2941.504127 3217.659839
11220.000000 8265140.842570 187045.203084 -9010286.037943 3576.632640 2940.212461 3336.817684
11280.000000 8476469.855880 363361.539828 -8806566.972450 3467.223748 2936.615316 3453.356539
11340.000000 8681152.327987 539392.939243 -8595936.444370 3355.096101 2930.715510 3567.185152
11400.000000 8879027.755473 715001.371056 -8378559.753825 3240.337430 2922.517653 3678.214371
11460.000000 9069940.961012 890049.135485 -8154607.485167 3123.037529 2912.028151 3786.357219
11520.000000 9253742.215093 1064398.970630 -7924255.374626 3003.288187 2899.255193 3891.528955
11580.000000 9430287.353588 1237914.159587 -7687684.173882 2881.183116 2884.208755 3993.647148
11640.000000 9599437.891089 1410458.637200 -7445079.509683 2756.817881 2866.900586 4092.631738
11700.000000 9761061.129879 1581897.096364 -7196631.739585 2630.289828 2847.344202 4188.405101
11760.000000 9915030.264490 1752095.093803 -6942535.803933 2501.698008 2825.554879 4280.892112
11820.000000 10061224.481714 1920919.155240 -6682991.074184 2371.143097 2801.549640 4370.020201
11880.000000 10199529.056016 2088236.879864 -6418201.197684 2238.727328 2775.347242 4455.719416
11940.000000 10329835.440236 2253917.044026 -6148373.939017 2104.554403 2746.968163 4537.922478
12000.000000 10452041.351522 2417829.704074 -5873721.018036 1968.729414 2716.434589 4616.564833
12060.000000 10566050.852401 2579846.298238 -5594457.944707 1831.358768 2683.770394 4691.584705
12120.000000 10671774.426920 2739839.747499 -5310803.850881 1692.550096 2649.001126 4762.923147
12180.000000 10769129.051790 2897684.555336 -5022981.319134 1552.412174 2612.153983 4830.524091
12240.000000 10858038.262459 3053256.906294 -4731216.208798 1411.054837 2573.257798 4894.334387
12300.000000 10938432.214065 3206434.763271 -4435737.479319 1268.588891 2532.343013 4954.303853
12360.000000 11010247.737195 3357097.963459 -4136777.011084 1125.126030 2489.441658 5010.385313
